Freq.,T,R,V
2.0104205041839904,940.9313868106733,910.0831645743912,936.6006847521901
2.0209462659860007,1745.6116859668055,1692.2552483068407,1865.3396193546223
2.0314720277880114,2523.2141531804073,2457.4642609980538,2730.0956271323075
2.0419977895900217,3346.15365855241,3178.6995463498906,3631.6015429470003
2.0525235513920324,4096.476610436198,3900.606540317091,4488.381730407605
2.0630493131940426,4886.426768773344,4736.346166191058,5285.58414082304
2.073575074996053,5636.2074069551445,5537.536112779198,6120.6580827795015
2.0841008367980636,6390.706477481578,6206.095520812553,6986.64686827269
2.094626598600074,7123.980072208997,6904.522125866281,7758.961545221004
2.105152360402084,7866.149312145011,7595.53272104642,8541.432936581268
2.115678122204095,8593.19007351797,8249.236866784886,9353.284085425206
2.126203884006105,9298.829170246598,8868.732971159237,10051.764861438181
2.1367296458081158,9881.899494786776,9539.724463808709,10782.66061518869
2.147255407610126,10592.481407062727,10203.042674557224,11509.32543445822
2.1577811694121363,11213.548508055655,10815.197294164902,12194.86600445955
2.168306931214147,11796.93591818652,11393.321287618872,12937.828633934207
2.1788326930161572,12451.359780416813,11974.645486385367,13541.480368931863
2.1893584548181675,13029.641608226793,12559.64821726719,14153.802061811915
2.199884216620178,13542.650206650755,13060.21292030943,14792.862578516279
2.2104099784221884,14064.943488146208,13544.163763654495,15397.465930463988
2.2209357402241987,14622.957019663128,14117.30948991201,15885.836055507241
2.2314615020262094,15068.537734234524,14559.78436891588,16417.48420985638
2.2419872638282197,15643.609841149235,15030.705021136699,16942.34278274521
2.2525130256302304,16067.97584461211,15470.176735940524,17469.79648531528
2.2630387874322406,16503.69387698266,15902.304864238704,17957.361861622412
2.273564549234251,16907.854436696005,16249.582516540308,18407.258687787107
2.2840903110362616,17245.310781028085,16703.172984404722,18850.53595989521
2.294616072838272,17662.551746034766,17010.355727467704,19253.86713419983
2.305141834640282,18041.855792852366,17332.465940752263,19584.8117050038
2.315667596442293,18288.979242748803,17656.833207107287,19952.050955959625
2.326193358244303,18619.75180449766,17982.033788281802,20258.621601727442
2.3367191200463138,18829.84235712384,18264.461828512267,20548.83539126385
2.347244881848324,19126.38412431611,18434.716403499042,20784.533718185783
2.3577706436503343,19354.177487122757,18718.254827745797,21117.84347151197
2.368296405452345,19554.510349907447,18886.059022806792,21305.277628077813
2.3788221672543552,19747.13924349006,19065.937256937214,21507.86487534789
2.3893479290563655,19911.209173587442,19196.952135174037,21686.158162468186
2.399873690858376,20016.42199154809,19346.74364944834,21856.341860853336
2.4103994526603865,20156.777625037816,19515.03124352821,21978.031287662965
2.4209252144623967,20204.21513533947,19539.60306950376,22098.325667382545
2.4314509762644074,20305.611857410066,19634.062272700856,22154.5175475546
2.4419767380664177,20349.306152202866,19585.852617690813,22184.840881623997
2.4525024998684284,20333.35272066127,19642.865226994316,22255.171272852236
2.4630282616704386,20398.920824899782,19654.30665331516,22216.25661430804
2.473554023472449,20363.2158760572,19677.836219792585,22202.881315057526
2.4840797852744596,20285.84944681304,19557.777508262305,22154.02437724994
2.49460554707647,20225.39595125309,19563.211633056657,22102.634046636813
2.50513130887848,20132.103553399287,19466.298686373048,21995.516766027642
2.515657070680491,20120.249567915067,19363.028825227262,21923.556238159916
2.526182832482501,19887.00569499138,19259.454139768244,21733.233057280686
2.5367085942845113,19784.331276070086,19085.481398889453,21592.05878425534
2.547234356086522,19591.3581485398,18915.841017415536,21324.613549076996
2.5577601178885323,19380.503570452114,18788.448578558156,21171.89482542026
2.568285879690543,19199.621741136023,18540.889610884824,20962.60219811547
2.5788116414925533,18929.460197404274,18319.964945076677,20688.254405345913
2.5893374032945635,18735.020730400895,18077.899518276976,20416.952334695325
2.5998631650965742,18461.114863553343,17852.92927801993,20119.958876857992
2.6103889268985845,18193.743641717807,17519.277152287337,19823.340940995582
2.6209146887005947,17925.130900462264,17244.323088943314,19495.968394537165
2.6314404505026054,17621.053520093905,16973.862386547233,19144.648152876813
2.6419662123046157,17228.550919311805,16576.744300600225,18721.848057887757
2.6524919741066264,16819.735481488304,16276.702126989074,18324.12675915597
2.6630177359086367,16454.733569438496,15960.199719036893,17968.871670332745
2.673543497710647,16088.131859879306,15591.449545398393,17623.963631050166
2.6840692595126576,15707.288085058899,15137.755720083589,17170.093518592286
2.694595021314668,15322.886159102236,14765.49535478249,16718.81050417832
2.705120783116678,14874.18416768352,14379.99094025767,16226.582598988178
2.715646544918689,14511.545402530879,13916.165069039624,15732.560076643433
2.726172306720699,13968.655677278866,13531.405069588538,15288.076397021832
2.7366980685227094,13566.401653058927,13067.874564899188,14787.000062456002
2.74722383032472,13082.835920877615,12657.275052163604,14255.007228944956
2.7577495921267303,12608.640054004029,12136.095152693464,13716.5825920262
2.768275353928741,12098.209966031405,11673.733482828171,13136.000523318116
2.7788011157307513,11621.741552333622,11224.735006359739,12623.797557251615
2.7893268775327615,11101.343308305848,10710.434865614188,12050.09539010957
2.7998526393347722,10571.119915789328,10151.519416602881,11521.993974023697
2.8103784011367825,10067.175539339996,9664.322453672195,10896.080887774715
2.8209041629387928,9526.571968063448,9207.793395581037,10358.41924159342
2.8314299247408035,8986.988919457124,8628.972138930514,9760.71438484943
2.8419556865428137,8420.270194896573,8136.723980273689,9110.65945987914
2.8524814483448244,7835.64003126553,7557.542924145746,8573.987366173631
2.8630072101468347,7290.926306837563,7033.999611669497,7958.42726705647
2.873532971948845,6712.147700894601,6441.521288825187,7299.610759409051
2.8840587337508556,6183.629848307537,5965.90770583322,6789.865945751995
2.894584495552866,5621.021545155891,5372.2529011939705,6134.244702907352
2.905110257354876,5065.810192103149,4859.328175636678,5502.024517403307
2.915636019156887,4462.04388610426,4308.196184969103,4894.185827949305
2.926161780958897,3895.86297328893,3826.2903706961074,4269.816299603259
2.9366875427609074,3327.8883954367984,3263.0458067880054,3660.3640176766075
2.947213304562918,2763.8705901842573,2705.097575906848,2988.5171887815413
2.9577390663649283,2107.3169549665713,2153.6301484425994,2417.883326179743
2.968264828166939,1611.396447984868,1559.0452255537741,1759.9722187623372
2.9787905899689493,1043.2352504377138,1012.0255797945975,1149.7584063189706
2.9893163517709596,468.3061263231208,465.85909383223753,537.5103454917246
2.9998421135729703,79.91037290587738,81.96585892386163,72.32418870441923
3.0103678753749805,614.050680757587,582.4032106284011,655.1244613371344
3.0208936371769908,1205.3715949556868,1079.3392988297778,1265.4817635292318
3.0314193989790015,1708.652625905305,1650.0166287228963,1919.0934537579153
3.0419451607810117,2248.1374796665255,2160.5130368279424,2501.745326353419
3.052470922583022,2766.4433198851093,2692.796727933772,3063.372374229283
3.0629966843850327,3332.876716910285,3171.3300734365125,3639.5477187983806
3.073522446187043,3849.5440075725596,3647.5968177837776,4168.332498159007
3.0840482079890537,4303.783415709328,4197.212126094316,4692.8854411946595
3.094573969791064,4829.695677114217,4610.029721429983,5307.044532244624
3.105099731593074,5395.273275493862,5138.693278260031,5821.654373346125
3.115625493395085,5787.838518301027,5635.782139938116,6301.007637008826
3.126151255197095,6300.069018081374,6094.404545096264,6825.368122130006
3.1366770169991054,6764.879593454184,6561.108101102266,7396.335687298971
3.147202778801116,7218.990294188729,6967.924468566515,7894.398559717825
3.1577285406031264,7624.185095701136,7440.5749755507895,8351.738788729752
3.168254302405137,8098.622304168147,7806.639516526694,8850.749456154734
3.1787800642071473,8530.243026751037,8278.356122139838,9308.394137662537
3.1893058260091576,8944.205752023758,8621.325915631376,9688.640479912734
3.1998315878111683,9344.326541892307,8994.845125766647,10213.355106798283
3.2103573496131785,9716.484741913637,9352.238593054868,10621.010552844575
3.220883111415189,10064.472587073229,9741.23226786244,11011.674731696885
3.2314088732171995,10419.823232376693,10086.688931649029,11392.08483954645
3.2419346350192098,10856.743787523412,10430.1048518754,11738.337173802976
3.25246039682122,11141.2330415665,10725.776899498382,12178.92338754984
3.2629861586232307,11467.408749885739,11022.48974173417,12449.783470826946
3.273511920425241,11731.40124716058,11325.479499412813,12821.115467699678
3.2840376822272517,11989.845446662865,11660.792176486177,13084.914145587316
3.294563444029262,12278.550839729405,11834.674741032375,13397.057275271949
3.305089205831272,12549.973848957852,12055.31378245743,13692.36374698487
3.315614967633283,12817.49919450228,12397.57122567455,13935.22297509332
3.326140729435293,12966.26876387368,12590.956186766865,14189.142511584705
3.3366664912373034,13222.826768812683,12718.384058097177,14392.285562027882
3.347192253039314,13421.94651334979,12908.734879013431,14655.958832224422
3.3577180148413244,13617.457986794563,13137.40318770502,14781.004852116663
3.368243776643335,13724.01306076636,13275.232445134197,14990.429620435843
3.3787695384453453,13894.450458439074,13419.431306359193,15094.357421957133
3.3892953002473556,14042.18220035836,13522.375907090134,15289.52340578281
3.3998210620493663,14125.377651105084,13611.132659388675,15402.49400056507
3.4103468238513766,14263.35664438568,13727.071737055463,15520.485927473856
3.420872585653387,14318.94373891089,13843.089540676507,15611.595958009337
3.4313983474553975,14418.697834167855,13966.906222231752,15683.584580441098
3.4419241092574078,14425.1397993841,13976.567872745123,15800.813011938857
3.452449871059418,14502.742236497583,13942.055840497429,15740.5238977432
3.4629756328614287,14531.894037144562,14002.928230186359,15776.697987333206
3.473501394663439,14464.287937234869,13968.193807830585,15764.642336833875
3.4840271564654497,14504.218341404065,14012.144206033296,15742.030782577764
3.49455291826746,14448.359373383062,13890.68719025242,15702.25133189713
3.50507868006947,14383.942366795733,13952.391130963426,15708.733829088444
3.515604441871481,14356.694281127506,13863.66323716234,15705.186359621966
3.526130203673491,14249.384223674468,13788.80802014461,15562.65443961208
3.5366559654755014,14214.725987733575,13720.866925717717,15437.099985071225
3.547181727277512,14088.474957852088,13588.733015370419,15313.080737749091
3.5577074890795224,13946.737398074885,13463.46960620556,15191.984691353431
3.5682332508815326,13839.666544662306,13318.182225827752,15012.699940936787
3.5787590126835434,13683.62216864308,13214.906761543638,14931.764824388123
3.5892847744855536,13534.03175951345,13049.459019205122,14739.862228019518
3.5998105362875643,13307.761356692305,12816.661920977858,14524.183284436665
3.6103362980895746,13149.245223394411,12632.080899725283,14306.788584637226
3.620862059891585,12968.30191814844,12483.300101468996,14052.49404156684
3.6313878216935955,12775.78606629293,12269.256617530973,13851.15544692886
3.641913583495606,12500.167371915506,12061.227431859785,13589.955367454355
3.652439345297616,12239.329498295336,11787.025593771075,13333.22782319614
3.6629651070996267,12025.939794497806,11621.652772574502,13103.034617579895
3.673490868901637,11681.56447797831,11335.685704476648,12775.98826163123
3.6840166307036477,11390.642986472018,11036.065062992418,12483.013945834107
3.694542392505658,11179.115434089124,10700.172262262362,12153.632881294903
3.7050681543076682,10863.192196387452,10493.338616194778,11831.267317249914
3.715593916109679,10530.18892046306,10190.083106897151,11543.685929411211
3.726119677911689,10250.522344939774,9901.241287555838,11205.708198478067
3.7366454397136994,9920.941482513248,9583.67468825929,10765.098205046908
3.74717120151571,9545.66958992569,9246.823747498782,10389.825267171966
3.7576969633177204,9218.893157285363,8904.5989123511,10060.999235613013
3.7682227251197307,8904.228974875417,8570.56236597688,9674.29355105701
3.7787484869217414,8503.88901421522,8172.066335094835,9246.29648107789
3.7892742487237516,8158.758020241376,7817.835366522498,8890.248114133059
3.7998000105257623,7787.327210660035,7467.869016099251,8416.182880906234
3.8103257723277726,7375.576723446732,7163.872968906391,8090.126615775801
3.820851534129783,6987.862396283658,6783.903619701631,7582.626603234906
3.8313772959317935,6632.70568924763,6363.368382208827,7164.829548762143
3.841903057733804,6163.861703797362,6018.1943912539255,6786.011322665462
3.852428819535814,5767.270393712802,5516.052681447028,6352.921283899122
3.8629545813378248,5389.980947495394,5227.966897351448,5865.545838109614
3.873480343139835,4960.069629766229,4829.629782361824,5400.255501364725
3.8840061049418453,4579.34658578384,4458.883093723056,4987.957998670958
3.894531866743856,4118.674952718171,3987.4484070584517,4544.976413270215
3.9050576285458662,3725.5721317916373,3557.2216567302685,4075.4225069718786
3.915583390347877,3263.922399920782,3203.9591350667397,3584.698287718482
3.926109152149887,2856.233083747622,2799.5266762892084,3139.6179205684994
3.9366349139518975,2463.695059778304,2385.3464405427967,2729.635947557254
3.947160675753908,1990.2278442448942,1971.3725612191868,2252.885549496316
3.9576864375559184,1622.211415150878,1599.2892409065537,1749.7862659612194
3.9682121993579287,1221.6472826460724,1163.2890812624764,1268.5351380138832
3.9787379611599394,780.1722374894168,778.7226345882087,829.51088326261
3.9892637229619496,382.0777259770413,293.7102948414927,416.5542083060311
3.9997894847639603,32.2250110317297,55.39152179388975,91.78370037173275
4.010315246565971,485.93683346578314,483.01823428783035,500.9164119362374
4.020841008367981,894.609344140483,860.9450258887069,1026.2584921235891
4.031366770169991,1310.7317370879252,1253.7767388107243,1413.2712061960729
4.041892531972001,1694.0434463296065,1608.7430459673335,1888.5334071987609
4.0524182937740125,2115.507635275298,2066.908160425031,2307.422893698169
4.062944055576023,2556.672907441982,2492.9252847113057,2751.6280354782034
4.073469817378033,2875.3349794839364,2800.4559946760087,3132.882955868829
4.083995579180043,3329.3312435827156,3186.0694835436298,3579.550864789994
4.094521340982054,3684.565908818175,3554.189614432828,4037.667092825036
4.105047102784065,4071.254684142419,3921.7357967578887,4447.7039128239085
4.115572864586075,4395.229691992779,4270.510736058073,4810.650074801673
4.126098626388085,4852.659240724996,4622.186245413819,5201.995306890583
4.1366243881900955,5173.8829489352365,4951.323150063752,5613.964430465429
4.147150149992106,5500.509398405333,5284.083611903763,5984.691489067202
4.157675911794117,5881.120760404047,5652.633478740781,6343.272824417851
4.168201673596127,6202.572471423603,5959.26410690614,6790.41418577902
4.178727435398137,6455.034527694537,6251.061504738567,7078.47062024199
4.189253197200148,6801.0541058339,6583.140752122769,7383.731059294103
4.199778959002158,7110.56831181166,6925.64714542706,7797.37590064733
4.210304720804168,7438.152754505495,7142.562717573618,8097.322194997529
4.220830482606179,7704.154568329624,7489.737907302749,8475.106081002208
4.23135624440819,7955.289100451235,7717.004841913572,8738.691099610924
4.2418820062102,8277.701118665113,7963.017710764253,8972.350837982442
4.25240776801221,8514.119221693198,8220.543518234606,9303.832902666176
4.26293352981422,8749.77078579085,8497.7013166596,9522.120276157557
4.2734592916162315,9023.870976630164,8692.640772185134,9825.843740330485
4.283985053418242,9288.607119554654,8857.164829959433,10121.492720034023
4.294510815220252,9498.563266517309,9110.718420910312,10298.845988082589
4.305036577022262,9658.86965927028,9310.393090716048,10525.406863023723
4.3155623388242725,9829.145458362862,9491.09617293202,10762.091113096485
4.326088100626283,10014.014295344394,9675.510857582009,10914.432363763608
4.336613862428294,10166.277981775054,9802.36356369203,11134.341866117999
4.347139624230304,10350.570548105497,10019.051649360948,11269.769972382946
4.3576653860323145,10523.013174355963,10162.178008266921,11414.91471799024
4.368191147834325,10674.524063710574,10255.768887458535,11561.652689619379
4.378716909636335,10746.578878277553,10355.68900474504,11718.847764521834
4.389242671438346,10836.194278951165,10522.67733779495,11830.927825157432
4.399768433240356,10901.900461242982,10561.130177177341,11897.970360495046
4.410294195042367,11042.991826079335,10644.079961784126,11971.250526374397
4.420819956844377,11093.530830685368,10697.957358084854,12109.365411770474
4.431345718646387,11181.908867819255,10789.48648287264,12132.955872045646
4.441871480448397,11180.387537587198,10833.211624341844,12202.218352821583
4.452397242250409,11257.099273621787,10847.394037105758,12264.993159181493
4.462923004052419,11254.089222206307,10825.852473621824,12277.316500737545
4.473448765854429,11252.916872061718,10898.63033294596,12267.625641879633
4.483974527656439,11243.984696043966,10837.353071539079,12231.565830613448
4.49450028945845,11290.78045173153,10859.232572329805,12246.367880195434
4.505026051260461,11231.848119163571,10784.924488156401,12196.782204735213
4.515551813062471,11173.794731494327,10799.58985518413,12167.273408348718
4.526077574864481,11052.268836847054,10734.135730860966,12137.331501782675
4.5366033366664915,11095.461102034644,10690.774993093648,12071.66061447993
4.547129098468502,10994.27053047776,10629.960669553038,11935.457616206
4.557654860270512,10905.985462060748,10504.568250896424,11869.962344813659
4.568180622072523,10782.348445893478,10443.18703528629,11785.491085201274
4.578706383874533,10670.068308992579,10328.078316979358,11666.29271214649
4.589232145676544,10516.51768521025,10187.899591165213,11511.647909319043
4.599757907478554,10396.980949526576,10045.52361168778,11346.942318320795
4.610283669280564,10283.108377749795,9931.90124266702,11211.809867162694
4.620809431082575,10160.180791620556,9721.483963913939,11056.742801339262
4.631335192884586,9917.536061813062,9660.984164416142,10855.913998705542
4.641860954686596,9819.502951166349,9453.682247075792,10622.501105771404
4.652386716488606,9607.207689838353,9268.60059414904,10493.76873525289
4.662912478290616,9425.612819213466,9075.549567365219,10272.274249382908
4.6734382400926275,9183.750501311963,8910.20409305131,10047.376325131087
4.683964001894638,8983.769401693842,8662.326094063446,9801.762079828917
4.694489763696648,8838.345635982816,8480.310059750502,9574.620720477455
4.705015525498658,8500.363863010209,8253.220137555683,9341.631283256464
4.715541287300669,8308.40484559993,8031.972652581228,9060.958906112659
4.726067049102679,8059.770628986113,7808.16254313353,8806.815863574138
4.73659281090469,7788.051375363757,7501.3342186143,8492.095251050167
4.7471185727067,7511.547499839272,7271.309508413563,8214.224953203764
4.7576443345087105,7243.056782066992,7020.689104861197,7893.193162953688
4.768170096310721,7004.158072553229,6738.9878220324945,7594.946202704295
4.778695858112731,6682.091319254379,6464.995728610643,7312.1282290744
4.789221619914742,6401.246535266755,6196.329250961455,6970.49573087187
4.799747381716752,6180.441473859574,5899.739221489644,6705.3582050490195
4.810273143518763,5838.541375653221,5642.230771174337,6303.432862708449
4.820798905320773,5489.117139824311,5371.530177776199,6038.962229393023
4.831324667122783,5234.117972722064,5050.7073451406695,5709.052060434737
4.8418504289247934,4938.635096774493,4759.834510424839,5340.399408309968
4.852376190726805,4586.775543667166,4431.450336165645,5007.767389501733
