Freq.,T,R,V
2.002201373237591,336.5704223065015,318.77460094777393,377.2710251215171
2.0126841029404057,1283.8358662649807,1177.4282120092946,1255.3332572871266
2.0231668326432204,2242.790655237562,1912.3062569176232,2132.55684374425
2.033649562346035,3147.0204508136976,2759.1705581175775,3017.5662419299692
2.04413229204885,4050.1479144617692,3552.166168619086,3940.8382593580145
2.054615021751664,4951.232092397857,4378.443678772784,4761.631433395889
2.065097751454479,5844.367432069854,5161.642324516704,5672.321465304774
2.0755804811572935,6715.688093845732,5936.898812362386,6474.677225135257
2.0860632108601083,7603.8917470641345,6652.930251179433,7310.725583617265
2.0965459405629225,8355.280730855648,7375.626918835757,8052.12851980682
2.1070286702657373,9133.660109160572,8105.790683495594,8873.594027867246
2.117511399968552,9948.876397217984,8811.152678556442,9621.582346567364
2.1279941296713667,10732.273207282264,9457.278305579386,10420.320251281686
2.138476859374181,11525.676690719587,10151.425453309019,11120.11892441529
2.1489595890769957,12262.339786053957,10772.806285877446,11898.999386254947
2.1594423187798104,12958.251379500047,11445.12918328783,12518.410600596566
2.169925048482625,13643.090575233926,12018.250361109158,13238.487377369765
2.1804077781854394,14338.993049513405,12609.741322474058,13855.61585869733
2.190890507888254,15002.04891928427,13260.045351410306,14536.449478146
2.201373237591069,15592.479141572687,13770.525958694443,15082.592530357797
2.2118559672938836,16256.088542527816,14268.646774134611,15655.085386334344
2.222338696996698,16797.932374314518,14815.148985177588,16245.948126897765
2.2328214266995126,17351.091047355345,15344.741382620457,16774.411397063155
2.2433041564023273,17904.77840904773,15768.088308960701,17321.199960358983
2.253786886105142,18419.239370144976,16218.530077712843,17773.142045948985
2.2642696158079567,18886.12648713781,16668.359017804345,18314.988151474547
2.274752345510771,19347.40015178549,17063.51195163958,18683.297087769974
2.2852350752135857,19790.74074888786,17433.073538583445,19149.92510954353
2.2957178049164004,20185.245733498537,17795.107600388805,19488.864314636896
2.306200534619215,20566.944049798683,18133.90793054328,19919.780007673533
2.3166832643220294,20962.958984681653,18470.83531588297,20237.306209068112
2.327165994024844,21284.084211340487,18751.47731597218,20552.98708466196
2.337648723727659,21591.506197015893,19035.339575020836,20919.52988026775
2.3481314534304736,21824.932265627653,19304.701239551814,21203.650208199448
2.358614183133288,22125.602084875285,19480.621358300898,21415.21770871374
2.3690969128361026,22359.13772723802,19748.853578778875,21628.109362044346
2.3795796425389173,22592.66029703566,19899.220572432685,21824.668540326526
2.390062372241732,22703.997782489612,20096.00681351337,22026.695032238153
2.4005451019445463,22887.048152267744,20195.094402056267,22120.92617265609
2.411027831647361,23004.246827125004,20344.57364903944,22257.779864447308
2.4215105613501757,23109.492876195316,20377.227419731273,22346.00381580473
2.4319932910529904,23198.359725310136,20449.90207264111,22448.789731138408
2.4424760207558047,23227.34308264991,20467.91049583647,22453.051302357464
2.4529587504586194,23236.24910989144,20527.192454473836,22526.97605847435
2.463441480161434,23218.7565514809,20502.475947163115,22471.5763812013
2.473924209864249,23198.03578074346,20464.719365297886,22448.151575898417
2.4844069395670636,23178.99070942138,20491.590116557232,22440.16650314613
2.494889669269878,23108.56099938342,20367.100532570337,22311.053107391028
2.5053723989726926,22966.300606128185,20286.52181917775,22234.90040527851
2.5158551286755073,22830.18305458582,20149.947426834617,22104.50684319085
2.526337858378322,22691.868179630306,20043.522672167957,21990.130412972114
2.5368205880811363,22518.18086283269,19855.87290638048,21751.01423180313
2.547303317783951,22371.90539791747,19744.0820227337,21652.509039731875
2.5577860474867657,22111.43069429889,19518.40462010048,21378.13979605746
2.5682687771895805,21887.41366050164,19323.06098107991,21144.80485225035
2.5787515068923947,21647.4286916071,19073.879176956765,20891.754183892048
2.5892342365952095,21318.05408787081,18785.974624767514,20632.489115352684
2.599716966298024,21045.332477492546,18600.075769146963,20326.181056402474
2.610199696000839,20697.440518543037,18275.842616225145,19993.02864051246
2.620682425703653,20320.71402498807,17949.112631996617,19675.143662072005
2.631165155406468,20017.247072022805,17623.122627136992,19363.870451298204
2.6416478851092826,19594.86903309104,17285.244711997642,18953.824630158248
2.6521306148120973,19171.83158057028,16944.716346606834,18619.901145094438
2.6626133445149116,18747.167011719583,16549.989173668342,18211.29453348163
2.6730960742177263,18368.459846499507,16182.44236899176,17769.677559609234
2.683578803920541,17942.60497950808,15792.256924590376,17286.74839032777
2.6940615336233558,17400.785758161615,15335.231394876568,16848.55175527772
2.7045442633261705,16981.72926536985,14952.36299372616,16418.763532196142
2.7150269930289848,16472.24184473663,14520.079221688035,15968.448514312357
2.7255097227317995,15898.990507006922,14068.921148898267,15416.33469236351
2.735992452434614,15443.363928269564,13617.464760610763,14880.707117724283
2.746475182137429,14845.91647126793,13139.563389773784,14448.173723749263
2.756957911840243,14365.571780277245,12623.51440058881,13863.202529104688
2.767440641543058,13736.173433016089,12130.367532916462,13353.728800609457
2.7779233712458726,13218.574366893989,11607.496384840546,12790.228619629186
2.7884061009486873,12603.437050619805,11131.833879114414,12162.22010763617
2.7988888306515016,12061.324189993456,10646.174113429159,11622.852048517738
2.8093715603543163,11407.120012607056,10050.833045731732,11038.794849085836
2.819854290057131,10816.23809110272,9530.653816365475,10475.430737904171
2.830337019759946,10236.533763940943,8993.351262672475,9891.02046667037
2.84081974946276,9568.41301556993,8422.224316160402,9252.634963147737
2.8513024791655748,8963.720138075341,7891.227836279042,8635.770836269312
2.8617852088683895,8282.50459992265,7319.559085133486,8082.788769854988
2.872267938571204,7673.713203641309,6781.762374901518,7416.855443544192
2.8827506682740185,7001.808478726024,6195.451974411623,6747.194284381423
2.893233397976833,6412.583920417505,5672.71023349944,6189.595942826091
2.903716127679648,5771.543259462847,5082.9041972012,5561.082125474861
2.9141988573824626,5098.857011961984,4530.598337727698,4897.917374088733
2.9246815870852774,4444.072816991749,3944.112741943141,4252.017950265761
2.9351643167880916,3827.813879756037,3421.9292669560305,3669.2746862417284
2.9456470464909064,3138.107079698903,2765.8166002305484,3080.443646908106
2.956129776193721,2485.5382500997616,2230.73982571909,2453.123465020754
2.966612505896536,1874.2321866698928,1623.248401580597,1795.509116387037
2.97709523559935,1282.8311920724586,1103.2758065107193,1205.198522217834
2.987577965302165,619.707576021939,531.7638479978268,557.333632153168
2.9980606950049795,65.27072145623504,45.323902895588844,103.35349890635833
3.0085434247077942,687.9992344275495,609.8977715792677,618.8758729005061
3.0190261544106085,1292.0422762826986,1149.6328537810812,1237.2001938461215
3.0295088841134232,1944.3479989961236,1692.4364978076724,1859.1903417720014
3.039991613816238,2525.518963838556,2278.1629048545933,2430.5455651614084
3.0504743435190527,3148.5396020469116,2779.284068125979,3051.929413795425
3.060957073221867,3768.375356994255,3296.8037404433912,3649.0533529779777
3.0714398029246817,4370.316648701261,3806.373001778343,4202.375474595168
3.0819225326274964,4882.927746106828,4314.698107985954,4775.226790490711
3.092405262330311,5503.860664087719,4761.970990233987,5259.767720096524
3.1028879920331254,6062.819975689469,5391.081899673267,5869.471049664113
3.11337072173594,6616.051289690626,5851.7074823474795,6402.566395365202
3.123853451438755,7157.587142112565,6316.522247404108,6873.663407768381
3.1343361811415695,7712.711310691799,6802.809799347913,7417.463948559506
3.1448189108443843,8241.720750961398,7274.487468086354,7961.9189633497
3.1553016405471985,8687.013939808292,7672.003201823737,8460.126962924911
3.1657843702500132,9202.705739314812,8089.485046734044,8962.529980368143
3.176267099952828,9671.568512085149,8515.407597886633,9348.546496401295
3.1867498296556427,10128.584453981195,9013.856075247764,9823.640783801997
3.197232559358457,10618.118539708237,9350.541724401153,10255.375562480554
3.2077152890612717,11062.692337762861,9710.16733505842,10686.634907781267
3.2181980187640864,11452.178680118044,10122.554566170242,11105.296799714934
3.228680748466901,11882.310643622983,10507.599885351012,11456.063847129051
3.2391634781697154,12255.003723547414,10847.665538516178,11843.010487425096
3.24964620787253,12661.339434109235,11174.094741030041,12194.470548805122
3.260128937575345,13003.080224030322,11503.636391723256,12610.079594496088
3.2706116672781596,13315.153642107622,11799.023879698323,12926.6655100481
3.281094396980974,13663.38573907309,12027.903207370502,13258.341123967093
3.2915771266837885,13939.766830678385,12319.604451020823,13518.932579413813
3.3020598563866033,14260.303922016632,12610.540682156168,13771.211809922037
3.312542586089418,14583.585476564898,12860.778130041595,14064.780295479084
3.3230253157922323,14795.987886876717,13037.253906740852,14319.015998410543
3.333508045495047,15076.154249522328,13279.637138404842,14513.068150909561
3.3439907751978617,15286.087962638147,13434.102559061525,14781.705534314338
3.3544735049006764,15466.19619860755,13684.749560046663,14985.165803227554
3.364956234603491,15665.500554047383,13821.23010602706,15164.764896256813
3.3754389643063054,15889.53220691495,13954.678556323764,15342.602057683804
3.38592169400912,15979.077556547185,14081.158239333234,15446.450423312403
3.396404423711935,16159.009833648252,14245.36990862405,15601.269235204349
3.4068871534147496,16245.463053182795,14376.21712882176,15689.946898230264
3.417369883117564,16344.421379808755,14369.199336160164,15760.604716397072
3.4278526128203786,16412.74476591609,14465.562600939484,15882.646721597042
3.4383353425231933,16486.929737840022,14524.460601679315,15985.731933169789
3.448818072226008,16498.383612425863,14596.206220489126,15956.315373155374
3.4593008019288223,16541.608975874155,14542.901454803401,15983.000539586887
3.469783531631637,16525.089300694082,14594.031610649512,15994.207979082925
3.4802662613344517,16487.29719826848,14632.083598197547,16036.167733930935
3.4907489910372664,16546.430822391405,14545.5256099902,15979.041567096498
3.5012317207400807,16453.274211173564,14490.165667108373,15905.883876591937
3.5117144504428954,16365.970776253798,14454.88715574953,15817.50065356856
3.52219718014571,16296.595341704493,14373.321563859154,15799.720651904963
3.532679909848525,16218.600991314157,14288.706118035883,15692.09961558305
3.543162639551339,16098.936174022545,14195.448496817135,15511.415663984171
3.553645369254154,15937.601672370522,14062.509705821902,15432.816615280586
3.5641280989569686,15786.014207199216,13960.595156663327,15339.879059376364
3.5746108286597833,15591.306832150898,13782.047995257066,15104.863743870197
3.585093558362598,15426.734083905218,13610.768516835557,14916.99552608317
3.5955762880654123,15262.581144794985,13407.954121205617,14754.012047586188
3.606059017768227,15091.03240840178,13273.448432552714,14537.18040875595
3.6165417474710417,14779.515559739673,13050.24743621803,14316.7653589259
3.6270244771738565,14549.900276225997,12869.226031486982,14086.258874626248
3.6375072068766707,14263.236004244613,12622.165632425073,13844.388546384645
3.6479899365794854,14076.008722467604,12349.664573443742,13606.227459817825
3.6584726662823,13777.2843360859,12134.104089528817,13289.173229790185
3.668955395985115,13493.259547995121,11865.804803726378,13024.140230596795
3.679438125687929,13107.7024319067,11584.872065851156,12676.06689328996
3.689920855390744,12809.650481150702,11310.521252324883,12408.858999030599
3.7004035850935586,12423.449272803648,11016.589811285367,12064.481567919373
3.7108863147963733,12133.026190823914,10682.195129402548,11690.83280534324
3.7213690444991876,11758.423223524987,10410.18759028325,11391.835704159883
3.7318517742020023,11370.26892808921,10019.026463669454,10985.45482598752
3.742334503904817,11014.602475123234,9724.206587324878,10672.233366935996
3.7528172336076318,10640.437293271409,9336.006090708208,10301.439387063869
3.763299963310446,10244.817011256328,9047.843207927339,9908.422655549186
3.7737826930132607,9811.218470726853,8675.41687703603,9499.010189044566
3.7842654227160755,9420.199256926813,8344.65304630603,9115.3813722039
3.79474815241889,8959.220326920107,7917.092290320012,8703.868740101436
3.805230882121705,8549.986094104674,7522.258715916473,8283.920482805865
3.815713611824519,8146.791908947733,7168.376342780382,7851.952406488437
3.826196341527334,7703.486393526637,6776.591689034822,7445.977230277943
3.8366790712301486,7233.235323522468,6337.7421836181165,6957.632124328882
3.8471618009329633,6768.532404005814,5962.405815994991,6540.617552460202
3.8576445306357776,6272.666792275593,5558.363243811627,6104.089154534159
3.8681272603385923,5852.453632417446,5129.141419162442,5656.082975878652
3.878609990041407,5394.820278106496,4718.371338464852,5190.907121389833
3.8890927197442218,4906.856064939147,4289.259859352784,4757.224994129474
3.899575449447036,4417.038184857177,3927.8894858560275,4295.008935936679
3.9100581791498508,3956.954370155486,3493.522009654043,3819.242306910642
3.9205409088526655,3472.982609363083,3055.5805401076186,3354.77942302598
3.93102363855548,2983.660433381677,2644.5707112405316,2888.5587573472826
3.9415063682582945,2505.532663853595,2226.0275253367863,2416.0396826378847
3.951989097961109,1985.2902885609437,1753.2521859400135,1922.5927945135209
3.962471827663924,1548.7279661609348,1383.7157932620025,1474.5248023132337
3.9729545573667386,1045.260363539884,901.1945419357326,1047.853830052249
3.983437287069553,589.9327608611469,518.5861580258126,574.9195517674408
3.9939200167723676,119.26726359397284,107.59143420900071,134.9673373873223
4.004402746475182,324.8269845291831,297.8395684060777,323.4988397269809
4.014885476177997,822.580945751896,758.3541633443274,864.8387075706241
4.025368205880811,1310.6852833167882,1142.6896183648357,1294.8374580593504
4.0358509355836265,1790.6343414422938,1588.8445377630972,1717.5455724536369
4.046333665286441,2240.754061095853,1944.2487972109589,2112.642152742006
4.056816394989255,2660.471741431115,2344.5410720080913,2559.00539255094
4.06729912469207,3144.4455921813924,2782.3712987000013,3014.9227335708806
4.0777818543948845,3566.0244734912953,3185.140802297963,3452.614334147818
4.0882645840977,3975.717811142412,3527.2352201897393,3858.9550520594394
4.098747313800514,4482.587903569073,3953.4552194339285,4297.4775891600475
4.109230043503328,4884.139235309729,4294.817102895216,4752.698322810965
4.119712773206143,5283.597373035414,4687.792259450321,5103.6212666338615
4.130195502908958,5673.491836539021,4987.613157686883,5547.237281343008
4.140678232611772,6097.619130164166,5377.865139584035,5908.528853354455
4.151160962314587,6473.74589690304,5737.138613803967,6257.004220417994
4.161643692017401,6872.997429439762,6027.73078509357,6632.463320241801
4.1721264217202165,7242.0584288668015,6440.3762803080335,7008.668051550093
4.182609151423031,7592.756489143549,6735.7615821848785,7382.666525544673
4.193091881125845,7920.94411224242,7017.574825855367,7713.111135130214
4.20357461082866,8343.047248257179,7341.6825692020875,8084.493392274291
4.2140573405314745,8706.932585403876,7667.559816134424,8412.890786439968
4.224540070234289,8960.233951695489,7913.69919954444,8677.851192548604
4.235022799937104,9292.307141940113,8151.077945362658,8970.20425159704
4.245505529639918,9590.831847437981,8435.120630645977,9284.671848624603
4.255988259342733,9880.514095465265,8683.701877411255,9548.613662601583
4.266470989045548,10128.981106641595,8944.414443879265,9835.380355559359
4.276953718748362,10381.12124786015,9186.015714981653,10048.140256240953
4.287436448451177,10622.842346115409,9447.216124915387,10306.554068070003
4.297919178153991,10883.389328905405,9610.694597512636,10517.824399588082
4.3084019078568065,11063.292674905148,9797.483208795917,10758.737518811578
4.318884637559621,11266.590778651118,9983.76041861446,10950.918974349219
4.329367367262435,11544.554846464895,10208.338696173727,11144.60401390976
4.33985009696525,11692.212995755044,10320.86305974058,11265.296628471777
4.3503328266680645,11827.48322143243,10493.073511762608,11493.666376407045
4.360815556370879,12005.258412225314,10581.087118585621,11676.746114498334
4.371298286073694,12192.01475309829,10785.518816166783,11807.523454274295
4.381781015776508,12307.452330731634,10864.103653213699,11919.361686461487
4.392263745479323,12405.67248811358,10974.168097723234,12014.349259509125
4.402746475182138,12527.382322398344,11051.11203058745,12134.716616989786
4.413229204884952,12620.49229107863,11152.710978642763,12203.173745483644
4.423711934587767,12678.526746792422,11187.315163726003,12285.715613493016
4.434194664290581,12726.803326921909,11264.187760928386,12360.312181318284
4.444677393993396,12798.476640296964,11281.703782775667,12361.343417069314
4.455160123696211,12811.733678009805,11307.032782269698,12432.340869349024
4.465642853399025,12827.868689774139,11353.547222402107,12439.277075210079
4.47612558310184,12829.141252649097,11320.991681138044,12414.397414981217
4.4866083128046546,12800.252888044764,11317.942758195692,12394.088960043662
4.497091042507469,12787.89044370173,11308.664647743048,12357.589607697033
4.507573772210284,12745.242845059329,11280.086429142813,12355.29371576298
4.518056501913098,12704.25904958585,11233.01162182414,12337.983087990293
4.528539231615913,12616.621203342393,11165.475934986527,12218.396066704316
4.539021961318728,12563.000459853774,11093.838813755638,12150.283526213201
4.549504691021542,12484.003897739809,11005.68727363979,12080.228873874774
4.559987420724357,12391.895666986527,10922.240308179911,11997.842389516069
4.570470150427171,12243.977562645794,10820.0337107494,11835.79294781083
4.580952880129986,12143.108618389553,10725.498904110385,11699.750993616664
4.591435609832801,11974.48650056801,10583.953051179253,11601.826068134145
4.601918339535615,11798.453118022855,10443.903998601198,11356.677389442599
4.61240106923843,11656.95630168638,10283.198171419075,11238.818365795982
4.622883798941245,11482.728794204462,10138.817775956015,11088.96759468477
4.633366528644059,11285.803979759057,9942.465507233637,10940.550634159508
4.643849258346874,11072.582295880375,9742.395792010551,10709.137931401303
4.654331988049688,10850.08036906899,9574.466909879928,10475.551087061063
4.664814717752503,10650.586360468214,9396.507421292508,10273.579701784925
4.675297447455318,10399.47837534621,9215.37453451923,10071.916574562567
4.685780177158132,10134.089990163216,8938.654190256586,9820.382881334643
4.696262906860947,9921.609432532014,8696.045098980174,9608.210177632096
4.706745636563761,9605.810782818855,8522.351690459036,9334.59758423737
4.717228366266576,9393.147011053155,8279.070600713185,9072.49198512993
4.727711095969391,9080.567933634511,7994.240047686058,8759.63746959048
4.738193825672205,8804.593521604915,7769.334772443922,8491.30785468245
4.74867655537502,8486.66735961152,7505.583529482884,8191.612592070076
4.759159285077835,8163.560878564423,7261.126220645114,7933.260155190963
4.769642014780649,7862.193673070849,6937.483052001486,7607.1962273389245
4.780124744483464,7571.996413248663,6677.059953271778,7266.608131255859
4.790607474186278,7218.012770695825,6400.124132043221,6943.040499702056
4.801090203889093,6832.456317133181,6003.099439511215,6600.774880436199
4.811572933591908,6553.8401943097315,5762.515245152097,6337.837356365506
4.822055663294722,6140.049773003566,5424.169390592754,5946.777935863757
4.832538392997537,5850.66197034904,5130.521309986252,5617.176410590861
