Freq.,T,R,V
2.00020944601529,210.23859464537094,192.45604186004545,174.75828165344655
2.0106817467797677,1157.4907281977557,993.126750813443,1051.9197329487843
2.0211540475442455,2072.4884017363615,1842.7898581976265,1981.5762967982457
2.031626348308724,2990.547789045578,2697.514885659151,2865.267429811974
2.0420986490732016,3883.101072239222,3465.738482015854,3768.083976696781
2.0525709498376794,4788.675348975151,4198.432134618767,4561.433587681815
2.0630432506021577,5655.282748579093,4995.897347578901,5460.799660240353
2.0735155513666355,6551.5284312504255,5795.196625776986,6313.845452600124
2.0839878521311133,7401.97095242165,6540.216684249101,7094.509818292936
2.0944601528955915,8207.12963960131,7238.848133211331,7889.859981689035
2.1049324536600693,9024.052290258269,7976.650808364833,8731.957255312143
2.115404754424547,9849.224293958758,8667.760479665454,9517.113924866191
2.1258770551890254,10598.936928691623,9363.755522920577,10250.925341424976
2.136349355953503,11340.3437861746,10034.656746218134,11005.462447266735
2.146821656717981,12141.253559995283,10707.948514628713,11685.686733793535
2.1572939574824592,12845.400183336207,11287.413053441955,12428.959419467154
2.167766258246937,13572.377338100434,11918.150034889666,13102.721637620769
2.1782385590114153,14207.019946693157,12518.244538191342,13731.954966659125
2.188710859775893,14861.494378307614,13105.111599362534,14371.723426270722
2.199183160540371,15476.107624018003,13685.081162746406,14969.19571761509
2.209655461304849,16110.12432678702,14232.247204673467,15530.177265039212
2.220127762069327,16727.50642712881,14694.047085201206,16182.435203634413
2.2306000628338047,17262.612822538802,15182.125157708166,16708.41483515962
2.241072363598283,17794.76450525379,15690.150748735574,17249.20369561093
2.251544664362761,18278.16372734149,16151.074813715024,17682.558256324905
2.2620169651272386,18794.905893419178,16565.10738371353,18125.89545053624
2.272489265891717,19277.059754954957,16960.156491246275,18583.4728430817
2.2829615666561947,19733.01218592078,17436.975538753784,19092.16176975174
2.2934338674206725,20139.006619628122,17788.15714593694,19435.207682561442
2.3039061681851507,20561.91116337048,18095.798864656896,19807.544332406753
2.3143784689496285,20871.882241852123,18417.64645918017,20123.246105875893
2.3248507697141063,21222.997910592923,18686.276036920706,20545.304750369476
2.3353230704785846,21552.14447225485,19004.270658381225,20810.05413783126
2.3457953712430624,21841.50868268778,19271.817906733195,21063.31575646397
2.35626767200754,22109.491237634677,19509.88283581282,21381.6293809897
2.3667399727720184,22310.469638029248,19683.05276624784,21542.508516937738
2.3772122735364962,22538.932672628092,19880.88539036151,21739.859122901464
2.387684574300974,22707.82534417919,20053.17302230503,21935.365226683207
2.3981568750654523,22876.870633342838,20175.63625565841,22098.3752311602
2.40862917582993,23013.92922451651,20255.65795640555,22214.09566263216
2.419101476594408,23115.100145110922,20373.97571730222,22335.92356717004
2.429573777358886,23169.3313708815,20497.108212021845,22403.220938374656
2.440046078123364,23265.448810910384,20485.586648845292,22466.659017148006
2.4505183788878417,23274.509375014826,20538.83037572081,22502.13060789214
2.46099067965232,23292.902322960075,20555.369111971555,22410.405427804406
2.471462980416798,23267.447610310697,20496.80951142593,22468.460683295318
2.4819352811812756,23208.66263324161,20471.81278860366,22415.405703977078
2.492407581945754,23141.06611443598,20404.49815731204,22363.835662416208
2.5028798827102317,23015.26886400875,20358.424257669558,22242.519262543796
2.5133521834747095,22901.276919087766,20241.688893349117,22108.436035623654
2.5238244842391877,22775.60830229084,20092.09709343343,21996.98652579056
2.5342967850036655,22596.090507255736,19946.292137304496,21789.64040676261
2.5447690857681438,22409.390239464887,19776.283448966613,21625.941954580136
2.5552413865326216,22195.275618855456,19572.81711552668,21484.08725119269
2.5657136872970994,21962.036977856627,19374.140731703184,21188.919525705507
2.5761859880615776,21689.51308735309,19123.235212450458,20937.939738469104
2.5866582888260554,21445.76755620712,18898.560346626655,20741.268154078913
2.5971305895905332,21082.354097717238,18653.886441777875,20411.560954558106
2.6076028903550115,20793.232564192967,18333.183681436374,20117.14385907126
2.6180751911194893,20441.47275655495,18027.19581704205,19755.944695190676
2.628547491883967,20119.19471839124,17771.46883054989,19411.568875434234
2.6390197926484453,19697.57039473734,17399.128340155592,19022.702259500154
2.649492093412923,19308.646973596886,17051.393717741234,18675.36695361416
2.659964394177401,18951.964963467195,16699.342527018052,18274.529922277517
2.670436694941879,18521.09383610869,16310.620459692069,17857.43428329305
2.680908995706357,18012.11534174953,15965.158260010345,17432.36794717183
2.691381296470835,17575.342956901237,15482.511882029401,16949.222234805497
2.701853597235313,17102.952681210845,15104.53029774385,16524.276193626047
2.712325897999791,16581.085762182305,14656.748974689992,16038.320452432785
2.7227981987642687,16048.068725620145,14178.452653065124,15546.903473671202
2.733270499528747,15538.840648601166,13756.765552852743,15025.676914546379
2.7437428002932247,15049.878583201506,13243.832886038163,14507.43785564851
2.7542151010577025,14447.895392435117,12791.827182215031,13980.681714465349
2.7646874018221808,13913.972955571857,12236.984284565828,13442.95201647259
2.7751597025866586,13363.294180326153,11765.16617458253,12866.71938178087
2.7856320033511364,12808.822776408524,11266.74726106855,12345.565884883645
2.7961043041156146,12219.772558080547,10764.607977589028,11761.550716616213
2.8065766048800924,11561.027578231779,10216.198673184957,11187.214772679337
2.8170489056445702,10997.28487307637,9712.036974981456,10673.76304385682
2.8275212064090485,10348.214098943568,9181.62895029098,10018.739422981556
2.8379935071735263,9714.355598871321,8593.758669930876,9408.603422181837
2.8484658079380045,9101.39574271242,8036.268687159806,8785.78541217968
2.8589381087024823,8468.982556897998,7518.303943778159,8183.704276597245
2.86941040946696,7850.150081095272,6928.178675364142,7607.011226580874
2.8798827102314384,7204.612388140804,6350.901008407226,6987.137811592898
2.890355010995916,6629.853050166253,5771.018093545338,6388.391699179508
2.900827311760394,5951.493758476032,5282.68005395423,5748.098232436873
2.9112996125248722,5273.391419938809,4625.119309175769,5056.248730900519
2.92177191328935,4617.187183971108,4125.419731534867,4472.609628077561
2.932244214053828,3993.628958045779,3484.570849741963,3844.2822444175176
2.942716514818306,3353.545746898792,2943.9568022377475,3210.7211685857856
2.953188815582784,2683.4445425916897,2369.951263783231,2608.161039015015
2.9636611163472617,2059.1575108266193,1781.8231929754102,1996.375701035445
2.97413341711174,1414.358620407371,1327.894483041496,1403.379770686111
2.9846057178762178,755.7482907370425,683.5446138429359,738.21658317035
2.9950780186406956,130.38232591460178,106.24707189253766,135.30475315487877
3.005550319405174,530.0547484271135,440.84954564578965,511.2301358129724
3.0160226201696516,1150.242919943342,1028.0109084300989,1077.7513507961385
3.0264949209341294,1775.0684702540022,1574.3450129385715,1688.836505324827
3.0369672216986077,2371.227531191175,2125.16955804234,2274.6206711817304
3.0474395224630855,2990.9420893783476,2666.089180009579,2862.983534417733
3.0579118232275633,3570.649085095246,3169.75611072839,3454.814664955065
3.0683841239920415,4184.785208424346,3659.575795495771,3993.263599685357
3.0788564247565193,4751.771115575743,4171.424881385951,4586.503811889181
3.089328725520997,5302.622158186293,4667.654035895162,5148.151146584229
3.0998010262854754,5885.180332517322,5201.835772629068,5709.498499061996
3.110273327049953,6448.618947230172,5637.252251233112,6277.795682505298
3.120745627814431,7001.9110312958255,6210.772703868779,6709.866825841008
3.1312179285789092,7526.021497351429,6659.268516243513,7244.80659622997
3.141690229343387,8095.569424461283,7118.580188416674,7827.18241669489
3.152162530107865,8547.511339149654,7575.325041372645,8253.30679713227
3.162634830872343,9033.210606135484,8026.486466302005,8770.901008338376
3.173107131636821,9533.72442617746,8427.462510915117,9237.733756183725
3.1835794324012987,10051.77938695281,8880.10984405558,9685.001393444236
3.194051733165777,10481.325582589096,9200.079911836372,10148.033068050376
3.2045240339302548,10938.18280300377,9618.104757726516,10567.148699385982
3.214996334694733,11380.90160012713,10012.74845812585,10966.320561843839
3.225468635459211,11774.105029733342,10386.32235813322,11405.655918334623
3.2359409362236886,12162.721173539565,10705.772445331831,11755.975151243632
3.246413236988167,12577.231558564265,11105.733468650344,12103.284648184283
3.2568855377526447,12899.682155709339,11409.673192750646,12441.54236276256
3.2673578385171225,13257.774840652466,11690.80494325182,12820.56194199218
3.2778301392816007,13540.172243787016,11990.89395259567,13139.688858391837
3.2883024400460785,13884.046760687803,12232.643580926304,13428.082746015638
3.2987747408105563,14185.726699490711,12541.004890190841,13694.655830748437
3.3092470415750346,14512.057031850885,12777.748060365122,13969.694049575206
3.3197193423395124,14713.054028757124,13017.225679095145,14231.698310184947
3.33019164310399,14960.286794203681,13276.187592940205,14496.687684294084
3.3406639438684684,15225.984028229954,13415.314580452929,14720.294902056265
3.3511362446329462,15429.511334844678,13608.374351599048,14828.438252826865
3.361608545397424,15602.091542930784,13805.984990914505,15075.597658270633
3.3720808461619023,15801.868028666238,13903.024772439727,15241.559841490583
3.38255314692638,15929.523508412267,14064.10583898808,15377.71364972987
3.393025447690858,16069.497504160812,14179.385808886982,15532.794270720991
3.403497748455336,16227.708255809854,14319.842713348433,15709.534357578968
3.413970049219814,16315.385276434748,14405.319142389388,15773.698176355423
3.4244423499842918,16393.0827113491,14484.233208390306,15836.759497678835
3.43491465074877,16461.176097203683,14504.151556045466,15894.62383938042
3.445386951513248,16509.812659405183,14607.919144510797,15990.304884341122
3.4558592522777256,16520.18668633304,14604.523385998145,15938.649920840802
3.466331553042204,16570.887296728844,14603.762328832543,15979.864608553831
3.4768038538066817,16555.6308293141,14651.677380105466,15965.453091094096
3.4872761545711595,16505.884723388892,14622.90933376335,15942.16203966025
3.4977484553356377,16449.731553023295,14577.477977016733,15925.995704383184
3.5082207561001155,16437.679963831335,14486.440252799122,15869.364313991959
3.5186930568645938,16353.62604412234,14446.128888475307,15767.45129048756
3.5291653576290716,16202.723080720813,14354.589682950364,15681.538565812883
3.5396376583935494,16119.490119442526,14237.629399410149,15569.963098350067
3.5501099591580276,16028.55447417606,14149.541450573803,15487.715921470384
3.5605822599225054,15864.401003776378,14063.79582265944,15324.918361706777
3.5710545606869832,15696.699336299522,13852.096490542282,15204.678595031846
3.5815268614514615,15524.607094040333,13686.312365194912,14969.940208896982
3.5919991622159393,15327.809873111144,13511.103262203378,14805.687333606953
3.602471462980417,15106.655178919918,13316.728110010192,14579.83804464897
3.6129437637448953,14871.331523482173,13168.34568737188,14376.05554044722
3.623416064509373,14657.59119215601,12989.151266854089,14178.794895309033
3.633888365273851,14394.471161612644,12709.829158528362,13909.578962385129
3.644360666038329,14134.898543409203,12453.810014960347,13681.478354643072
3.654832966802807,13865.5107107713,12222.821802853668,13363.450601396753
3.665305267567285,13512.42650537945,11941.024817014768,13080.9524106874
3.675777568331763,13300.29705606048,11695.13941754953,12814.144452398454
3.686249869096241,12914.611176662713,11383.64424473639,12472.282172555744
3.6967221698607187,12602.236702521572,11104.19939060704,12211.932660221313
3.707194470625197,12261.799635233703,10788.293576035569,11880.4075066768
3.7176667713896747,11911.063019745145,10490.785660461685,11528.237634589412
3.7281390721541525,11585.035489390964,10173.285022955955,11169.192570046338
3.7386113729186308,11180.27315460109,9847.387367458514,10812.908120440363
3.7490836736831086,10790.592537366243,9484.44278311849,10411.119651359237
3.7595559744475864,10403.850435538674,9153.32089935659,10032.823831888953
3.7700282752120646,10013.046168146559,8833.635421447605,9643.524039497446
3.7805005759765424,9563.670056863582,8432.355695577566,9277.230608965358
3.7909728767410202,9148.285983590533,8059.730740371161,8808.134448867122
3.8014451775054985,8718.488170019737,7672.080563052052,8400.18763658012
3.8119174782699763,8285.330138447885,7351.968729979144,7993.039044245773
3.822389779034454,7853.809769878255,6909.835474821002,7553.304333511201
3.8328620797989323,7439.481966131077,6537.308626138679,7155.525112285232
3.84333438056341,6928.163034350252,6133.404144255685,6704.607698360733
3.853806681327888,6460.137343536386,5716.980825006796,6265.87459232206
3.864278982092366,6003.796197224753,5300.006889789845,5790.289487684666
3.874751282856844,5517.571470862079,4896.761998247751,5334.298654090779
3.8852235836213223,5080.666364889768,4505.101990052042,4949.5588042819545
3.8956958843858,4635.229431187339,4069.61491439579,4496.564773006601
3.906168185150278,4127.021453997203,3633.8939225873123,3987.1269142014144
3.916640485914756,3651.3515768619054,3200.585004662353,3524.8383542247348
3.927112786679234,3144.121829007747,2775.701526432468,3105.3868801211142
3.9375850874437117,2637.364693105686,2355.1958397333124,2574.5628916787737
3.94805738820819,2179.9457783410267,1935.4333007476737,2135.485129376765
3.9585296889726678,1725.3308179636726,1518.7146854517832,1661.9512653490922
3.9690019897371456,1215.8892970812462,1130.0080012707917,1216.4134281770364
3.979474290501624,786.112214989427,632.4961737881578,763.5422157758799
3.9899465912661016,280.2484655459507,275.79922073937206,272.2651437360727
4.00041889203058,169.41792215441197,175.60615816835383,181.31590022730953
4.010891192795057,654.2661529460804,621.0222857721227,642.4955952606138
4.0213634935595355,1123.2467106770564,1051.8518756419203,1086.7287763978966
4.031835794324014,1580.317645014742,1407.6090959886667,1539.6800487581638
4.042308095088491,2028.869367489447,1793.3019426420067,1965.5352405190276
4.052780395852969,2526.6290711078855,2226.4968322047894,2458.6341416458627
4.063252696617448,2989.8555217782114,2611.544661697752,2878.580984918988
4.073724997381925,3396.9420867714825,3008.826365823624,3247.6250340848997
4.084197298146403,3900.2266201877214,3382.5228634259975,3755.6761381404203
4.0946695989108814,4280.140608857203,3777.3830015523886,4131.20808094272
4.105141899675359,4704.633656276969,4172.594475561678,4559.001154317402
4.115614200439837,5140.538474806196,4547.12961806261,4978.037856897651
4.126086501204315,5546.9552835416525,4891.6295353979385,5379.223708835543
4.136558801968793,5985.389211007611,5247.980480484482,5745.7016192986275
4.147031102733271,6313.031865147601,5633.9973372384065,6143.601795809548
4.157503403497749,6708.242289036307,5911.993233713417,6528.420614226817
4.1679757042622265,7103.797525167482,6270.664734880389,6870.687827708574
4.178448005026705,7453.026131956133,6630.670409737044,7249.143975826034
4.188920305791183,7811.106888555008,6955.088031988651,7553.2507595938805
4.19939260655566,8186.731818613994,7179.024799031101,7986.767333474007
4.209864907320139,8513.455972099986,7489.4871836395005,8245.757545205954
4.220337208084617,8820.076542415081,7830.06284285047,8549.475273692293
4.230809508849094,9179.814042084286,8080.825181098799,8893.335789832816
4.2412818096135725,9489.146225008475,8349.272650862673,9092.155334842784
4.251754110378051,9769.483632530839,8622.636696979991,9447.739797708982
4.262226411142528,10014.261023083507,8842.185955326851,9655.400195973834
4.272698711907006,10331.560015530551,9087.044939523954,9961.364489606503
4.283171012671485,10568.268937947803,9319.741056870056,10200.163785138002
4.293643313435962,10857.017619289962,9536.27001176891,10445.7598856971
4.30411561420044,11048.643323253713,9723.960192730096,10663.23097466442
4.3145879149649184,11245.206863050122,9943.308790213496,10870.541866737105
4.325060215729396,11430.887098756197,10073.180345695268,11072.408784600198
4.335532516493874,11643.123144660289,10303.530823024732,11215.130052260516
4.346004817258352,11857.601502515376,10447.725226239283,11418.95114875353
4.3564771180228306,11988.019840568997,10535.50125548785,11512.411157705657
4.366949418787308,12112.260539902565,10679.273870612227,11711.197811107224
4.377421719551786,12259.514947608955,10817.05016939065,11857.039725364984
4.387894020316264,12375.598127793659,10917.84749768912,12006.885124664272
4.398366321080742,12520.891463216987,11090.090496650575,12106.192492564223
4.40883862184522,12595.002147348041,11075.652000618062,12121.469760340671
4.419310922609698,12641.00349140979,11202.758229238854,12185.098933948026
4.429783223374176,12745.88574608871,11247.303901352583,12338.129076762383
4.440255524138654,12765.746206012846,11247.227478154433,12352.881572565086
4.450727824903132,12812.206722709605,11332.782040854798,12414.577094532913
4.4612001256676095,12878.306899027953,11351.690665115584,12428.44274408269
4.471672426432088,12835.260659923724,11325.672042799053,12400.167695939845
4.482144727196566,12841.83870989922,11367.057889076294,12362.331311350856
4.492617027961043,12831.803312830581,11322.88580063264,12368.94119368234
4.503089328725522,12796.230985337983,11298.918389013868,12376.555868636862
4.51356162949,12752.649838953777,11217.977236100962,12348.5925840237
4.524033930254477,12681.492856129142,11206.940396484526,12250.83415499867
4.5345062310189554,12642.781834262547,11100.01481368812,12193.211503252092
4.544978531783434,12567.807895372467,11051.30314393134,12153.215195978739
4.555450832547911,12433.469956037176,10994.077535186347,12050.838987498
4.565923133312389,12343.119554941322,10866.582863249594,11921.92089240079
4.5763954340768676,12211.931144064682,10780.27369586029,11778.768330050149
4.586867734841345,12090.707502508298,10695.82217241675,11654.484459536945
4.597340035605823,11893.486482634333,10542.205347756675,11451.771126826547
4.607812336370301,11747.033991169981,10388.899583157321,11348.377518328369
4.618284637134779,11574.62437919241,10229.236780941566,11145.765156751571
4.628756937899257,11381.87557934174,10056.682602413026,10987.001652590225
4.639229238663735,11188.376356368914,9853.196593913624,10834.246402054083
4.649701539428213,10968.58783687391,9676.026075082173,10618.702516667307
4.660173840192691,10753.064029906556,9499.322096140362,10445.685660001096
4.670646140957169,10538.801944367824,9286.345309517257,10193.164651524823
4.6811184417216465,10314.116384947856,9041.76169963609,9894.827723409073
4.691590742486125,10095.708147499772,8836.373791767546,9739.349777085148
4.702063043250603,9764.358681697375,8621.742375975009,9490.790786821597
4.71253534401508,9503.711764679363,8397.530460926484,9209.210435839786
4.723007644779559,9204.69665135824,8181.34250605415,8866.639009798995
4.733479945544037,8955.838524095476,7919.056284960112,8598.82886674183
4.743952246308514,8604.480751395507,7586.877912534573,8354.803069931208
4.7544245470729924,8327.105479628608,7378.417750934803,8040.778780518824
4.764896847837471,8033.728415679846,7111.173849398777,7769.198462927033
4.775369148601948,7673.154840444815,6807.978593094085,7418.684951180659
4.785841449366426,7320.760648556784,6499.855559791445,7082.818858786711
4.7963137501309046,7021.231127360429,6216.079894794986,6821.953961270346
4.806786050895382,6715.142425389106,5923.785178018565,6524.510341780065
4.81725835165986,6359.068109930966,5587.592877354751,6130.815687079144
4.827730652424338,6034.406861693723,5300.975281193847,5794.874239429681
